* Exported with UsyTrace, available at https://usyless.uk/trace
* Freq(Hz)	SPL(dB)
20.000000	68.378378
20.290907	68.379288
20.586045	68.400782
20.885476	68.422589
21.189262	68.444713
21.497467	68.467159
21.810155	68.489931
22.127391	68.513034
22.449241	68.529973
22.775773	68.547020
23.107054	68.564315
23.443154	68.581861
23.784142	68.599663
24.130091	68.617724
24.481071	68.636047
24.837156	68.651453
25.198421	68.660283
25.564940	68.669242
25.936791	68.678332
26.314050	68.687553
26.696797	68.696909
27.085111	68.706401
27.479073	68.716031
27.878765	68.728044
28.284271	68.740276
28.695675	68.752687
29.113064	68.765277
29.536523	68.778051
29.966142	68.760421
30.402009	68.717917
30.844217	68.732810
31.292856	68.750337
31.748021	68.768119
32.209807	68.779225
32.678309	68.744103
33.153626	68.719931
33.635857	68.737271
34.125101	68.754863
34.621462	68.772710
35.125043	68.778838
35.635949	68.765923
36.154286	68.752819
36.680162	68.739525
37.213687	68.726037
37.754973	68.713967
38.304131	68.705886
38.861278	68.697687
39.426528	68.689369
40.000000	68.680929
40.581813	68.672367
41.172089	68.663681
41.770951	68.654868
42.378524	68.644510
42.994934	68.630718
43.620309	68.616725
44.254781	68.602528
44.898482	68.588125
45.551545	68.569144
46.214108	68.545762
46.886308	68.522040
47.568285	68.500126
48.260181	68.479092
48.962142	68.457752
49.674312	68.434140
50.396842	68.407798
51.129881	68.381073
51.873582	68.354843
52.628101	68.328331
53.393594	68.298703
54.170222	68.263471
54.958146	68.231976
55.757531	68.205642
56.568542	68.178925
57.391351	68.129262
58.226127	68.076350
59.073046	68.027002
59.932283	67.985126
60.804018	67.942642
61.688433	67.895917
62.585712	67.828496
63.496042	67.775533
64.419613	67.693526
65.356618	67.658336
66.307252	67.610648
67.271713	67.540076
68.250203	67.469501
69.242925	67.382055
70.250086	67.335516
71.271897	67.300034
72.308571	67.199609
73.360323	67.116601
74.427374	67.023965
75.509945	66.963965
76.608262	66.903091
77.722555	66.771606
78.853056	66.673604
80.000000	66.593680
81.163627	66.473594
82.344179	66.431243
83.541903	66.309863
84.757048	66.203970
85.989867	66.098116
87.240619	65.996627
88.509563	65.912053
89.796964	65.780536
91.103091	65.640887
92.428216	65.529366
93.772615	65.421627
95.136569	65.350769
96.520362	65.183624
97.924283	65.077734
99.348625	64.971904
100.793684	64.838958
102.259762	64.754253
103.747164	64.620519
105.256202	64.502168
106.787188	64.374988
108.340444	64.280458
109.916292	64.195491
111.515061	64.023624
113.137085	63.916449
114.782702	63.772301
116.452255	63.664768
118.146092	63.593908
119.864566	63.460485
121.608036	63.354638
123.376866	63.248724
125.171424	63.122747
126.992084	63.036984
128.839227	62.897351
130.713236	62.791519
132.614504	62.693067
134.543426	62.632971
136.500406	62.572000
138.485850	62.435569
140.500173	62.329766
142.543795	62.226407
144.617142	62.166402
146.720647	62.105525
148.854748	61.991653
151.019890	61.921074
153.216525	61.850493
155.445111	61.786605
157.706112	61.726100
160.000000	61.647237
162.327254	61.568149
164.688358	61.497558
167.083805	61.412785
169.514095	61.382718
171.979734	61.352213
174.481237	61.283017
177.019125	61.230179
179.593928	61.164203
182.206182	61.128248
184.856431	61.101781
187.545230	61.071528
190.273138	61.029224
193.040725	61.002614
195.848567	60.985170
198.697250	60.967472
201.587368	60.949517
204.519524	60.937335
207.494329	60.926470
210.512403	60.915446
213.574377	60.904262
216.680888	60.892915
219.832584	60.881403
223.030122	60.883854
226.274170	60.891351
229.565404	60.898958
232.904509	60.906675
236.292183	60.914504
239.729132	60.922447
243.216073	60.930506
246.753732	60.938681
250.342848	60.947898
253.984168	60.963845
257.678453	60.980025
261.426473	60.996439
265.229008	61.013092
269.086853	61.030362
273.000811	61.047892
276.971700	61.065678
281.000346	61.086149
285.087590	61.121279
289.234284	61.152986
293.441294	61.171950
297.709496	61.191190
302.039780	61.210709
306.433050	61.246533
310.890221	61.287504
315.412224	61.317536
320.000000	61.348005
324.654507	61.372015
329.376716	61.395524
334.167610	61.419714
339.028190	61.461890
343.959469	61.494456
348.962474	61.513473
354.038251	61.532766
359.187855	61.552340
364.412363	61.592531
369.712863	61.627594
375.090460	61.646581
380.546277	61.665845
386.081450	61.685389
391.697134	61.723178
397.394500	61.759646
403.174736	61.773421
409.039048	61.787395
414.988657	61.801573
421.024807	61.815957
427.148753	61.827463
433.361775	61.834926
439.665167	61.842498
446.060244	61.850180
452.548340	61.857974
459.130807	61.865881
465.809019	61.873903
472.584367	61.882041
479.458265	61.890299
486.432146	61.885657
493.507464	61.877845
500.685695	61.869919
507.968337	61.861879
515.356906	61.853721
522.852945	61.845445
530.458016	61.837048
538.173706	61.828530
546.001623	61.817776
553.943399	61.804837
562.000691	61.791710
570.175180	61.778391
578.468569	61.764879
586.882588	61.746184
595.418991	61.719860
604.079560	61.693153
612.866100	61.671436
621.780442	61.650339
630.824447	61.628935
640.000000	61.593793
649.309014	61.552532
658.753431	61.529301
668.335221	61.505733
678.056380	61.476299
687.918938	61.423324
697.924949	61.380256
708.076501	61.341748
718.375711	61.311630
728.824726	61.277606
739.425726	61.209353
750.180921	61.156426
761.092554	61.088402
772.162900	61.054214
783.394268	61.023845
794.789000	60.944643
806.349472	60.891797
818.078095	60.838916
829.977315	60.796718
842.049613	60.766535
854.297507	60.718112
866.723550	60.654709
879.330334	60.619348
892.120489	60.598721
905.096680	60.584852
918.261614	60.570782
931.618037	60.556507
945.168733	60.542024
958.916529	60.565195
972.864291	60.593018
987.014928	60.621246
1001.371391	60.649884
1015.936673	60.687445
1030.713812	60.776535
1045.705890	60.865390
1060.916032	60.939866
1076.347412	61.010871
1092.003245	61.115392
1107.886798	61.221314
1124.001383	61.360859
1140.350359	61.466165
1156.937137	61.572656
1173.765175	61.712298
1190.837983	61.818209
1208.159120	61.957877
1225.732199	62.042524
1243.560885	62.177044
1261.648894	62.309221
1280.000000	62.448859
1298.618029	62.554735
1317.506863	62.641647
1336.670442	62.762744
1356.112761	62.906161
1375.837875	63.011955
1395.849898	63.114549
1416.153002	63.184754
1436.751422	63.262000
1457.649452	63.367887
1478.851452	63.441963
1500.361842	63.578234
1522.185107	63.615663
1544.325799	63.663840
1566.788535	63.795862
1589.577999	63.901715
1612.698944	63.998397
1636.156190	64.058527
1659.954630	64.119531
1684.099226	64.291377
1708.595013	64.397298
1733.447100	64.503116
1758.660669	64.592259
1784.240977	64.700071
1810.193360	64.888283
1836.523229	65.055984
1863.236074	65.200165
1890.337467	65.307085
1917.833058	65.488473
1945.728583	65.700197
1974.029857	65.911926
2002.742782	66.092923
2031.873347	66.270339
2061.427625	66.540242
2091.411780	66.761023
2121.832065	66.989239
2152.694823	67.202491
2184.006490	67.490810
2215.773596	67.731169
2248.002765	67.890064
2280.700718	68.164402
2313.874274	68.376151
2347.530351	68.618020
2381.675966	68.732025
2416.318240	68.943749
2451.464399	69.155479
2487.121769	69.349822
2523.297789	69.476685
2560.000000	69.625010
2597.236057	69.764659
2635.013726	69.870579
2673.340883	69.961474
2712.225522	70.032007
2751.675750	70.093953
2791.699796	70.139793
2832.306004	70.160700
2873.502844	70.181911
2915.298905	70.201928
2957.702904	70.178708
3000.723683	70.155151
3044.370214	70.123799
3088.651599	70.046018
3133.577071	69.960444
3179.155999	69.889757
3225.397888	69.762213
3272.312380	69.588726
3319.909260	69.438677
3368.198452	69.309698
3417.190027	69.150352
3466.894200	68.938614
3517.321337	68.726870
3568.481954	68.537310
3620.386720	68.303400
3673.046457	68.024113
3726.472148	67.744821
3780.674934	67.589730
3835.666117	67.321356
3891.457165	67.042047
3948.059713	66.768709
4005.485564	66.615503
4063.746693	66.339278
4122.855250	66.059989
4182.823560	65.897372
4243.664130	65.732517
4305.389646	65.492358
4368.012981	65.309292
4431.547192	65.163306
4496.005531	65.036240
4561.401437	64.848129
4627.748549	64.703971
4695.060701	64.559809
4763.351932	64.431755
4832.636481	64.339035
4902.928797	64.158310
4974.243539	64.018660
5046.595577	63.846444
5120.000000	63.762044
5194.472115	63.618223
5270.027452	63.474057
5346.681766	63.286621
5424.451043	63.147107
5503.351500	63.041037
5583.399591	62.867676
5664.612008	62.728022
5747.005687	62.588365
5830.597810	62.499849
5915.405808	62.388304
6001.447367	62.257156
6088.740429	62.186574
6177.303198	62.094296
6267.154142	62.077006
6358.311998	62.059465
6450.795775	62.041668
6544.624761	62.030002
6639.818520	62.045964
6736.396904	62.062158
6834.380053	62.078588
6933.788400	62.096247
7034.642675	62.138435
7136.963909	62.173732
7240.773439	62.200070
7346.092914	62.226792
7452.944296	62.203042
7561.349867	62.172676
7671.332234	62.115886
7782.914330	62.014027
7896.119426	61.847357
8010.971128	61.725712
8127.493386	61.446411
8245.710500	61.167104
8365.647121	60.887792
8487.328260	60.541274
8610.779292	60.185410
8736.025961	59.761970
8863.094385	59.338520
8992.011061	58.915058
9122.802874	58.491586
9255.497097	58.068102
9390.121402	57.644607
9526.703863	57.153573
9665.272962	56.743448
9805.857594	56.306694
9948.487077	55.919451
10093.191154	55.527338
10240.000000	55.103860
10388.944230	54.680370
10540.054903	54.189302
10693.363532	53.689350
10848.902086	53.121758
11006.703001	52.581144
11166.799182	52.126139
11329.224017	51.734210
11494.011375	51.473152
11661.195620	51.386395
11830.811616	51.375305
12002.894734	51.500104
12177.480858	51.711724
12354.606395	52.090354
12534.308283	52.446254
12716.623996	52.802165
12901.591551	53.158088
13089.249521	53.514019
13279.637040	53.793048
13472.793808	54.004768
13668.760107	54.216494
13867.576801	54.402130
14069.285350	54.462235
14273.927818	54.523215
14481.546879	54.576554
14692.185828	54.629454
14905.888592	54.668264
15122.699734	54.684271
15342.664467	54.700512
15565.828661	54.716988
15792.238852	54.721599
16021.942256	54.686910
16254.986772	54.651716
16491.420999	54.616010
16731.294241	54.551572
16974.656520	54.378117
17221.558584	54.183472
17472.051922	53.978765
17726.188769	53.729067
17984.022122	53.318422
18245.605748	52.967752
18510.994194	52.695556
18780.242805	52.324447
19053.407727	51.954069
19330.545924	51.950262
19611.715189	52.021222
19896.974155	52.027027
20186.382308	52.027027